[Name]
Series 1 at /LINE:Line 1

[Data]
Y [ m ],Pressure [ Pa ]
-2.25000000e+00, 0.00000000e+00
-2.18877554e+00, 7.48829365e-01
-2.12755108e+00, 1.19295859e+00
-2.06632662e+00, 1.43240809e+00
-2.00510216e+00, 1.44739330e+00
-1.94387770e+00, 1.31177163e+00
-1.88265324e+00, 9.95236814e-01
-1.82142878e+00, 5.51932812e-01
-1.76020432e+00, -6.72107339e-02
-1.69897985e+00, -7.12788463e-01
-1.63775539e+00, -1.33808041e+00
-1.57653093e+00, -2.00425053e+00
-1.51530647e+00, -2.56930423e+00
-1.45408201e+00, -3.40853047e+00
-1.39285755e+00, -4.14329052e+00
-1.33163309e+00, -4.70401764e+00
-1.27040863e+00, -5.18455172e+00
-1.20918417e+00, -5.61059666e+00
-1.14795971e+00, -5.91015720e+00
-1.08673525e+00, -6.15137959e+00
-1.02551079e+00, -6.25403786e+00
-9.64286327e-01, -6.32507992e+00
-9.03061867e-01, -6.44472408e+00
-8.41837406e-01, -6.47441053e+00
-7.80612946e-01, -6.36628056e+00
-7.19388485e-01, -6.22213173e+00
-6.58164024e-01, -5.90681171e+00
-5.96939564e-01, -5.59518433e+00
-5.35715103e-01, -5.30396843e+00
-4.74490613e-01, -4.71607590e+00
-4.13266122e-01, -4.24272871e+00
-3.52041632e-01, -3.66128206e+00
-2.90817142e-01, -3.03935647e+00
-2.29592651e-01, -2.47103214e+00
-1.68368161e-01, -2.11824965e+00
-1.07143670e-01, -1.86314416e+00
undef, undef
1.37754291e-01, 9.35238552e+00
1.98978782e-01, 9.25542259e+00
2.60203272e-01, 9.08821964e+00
3.21427763e-01, 8.86582851e+00
3.82652253e-01, 8.62614822e+00
4.43876743e-01, 8.32716084e+00
5.05101204e-01, 8.10711002e+00
5.66325665e-01, 7.91004086e+00
6.27550125e-01, 7.78133821e+00
6.88774586e-01, 7.70169973e+00
7.49999046e-01, 7.66859722e+00


