[Name]
Series 1 at /LINE:Line 1

[Data]
Y [ m ],Pressure [ Pa ]
7.50000000e-01, 6.60055542e+00
7.37951815e-01, 6.60567665e+00
7.25903630e-01, 6.60974550e+00
7.13855445e-01, 6.61382198e+00
7.01807261e-01, 6.62230492e+00
6.89759076e-01, 6.63291883e+00
6.77710891e-01, 6.64325237e+00
6.65662706e-01, 6.65557194e+00
6.53614521e-01, 6.67238808e+00
6.41566336e-01, 6.68987703e+00
6.29518151e-01, 6.70904064e+00
6.17469966e-01, 6.72826576e+00
6.05421782e-01, 6.75807762e+00
5.93373597e-01, 6.78879118e+00
5.81325412e-01, 6.81786346e+00
5.69277227e-01, 6.85089159e+00
5.57229042e-01, 6.88391447e+00
5.45180857e-01, 6.91748047e+00
5.33132672e-01, 6.95104599e+00
5.21084487e-01, 6.98461246e+00
5.09036303e-01, 7.01817703e+00
4.96988118e-01, 7.06052589e+00
4.84939933e-01, 7.10455608e+00
4.72891748e-01, 7.14858484e+00
4.60843563e-01, 7.18947601e+00
4.48795378e-01, 7.22721100e+00
4.36747193e-01, 7.28511953e+00
4.24699008e-01, 7.34596252e+00
4.12650824e-01, 7.40680552e+00
4.00602639e-01, 7.46709299e+00
3.88554454e-01, 7.52510595e+00
3.76506269e-01, 7.58238125e+00
3.64458084e-01, 7.63736916e+00
3.52409899e-01, 7.69235849e+00
3.40361714e-01, 7.73900127e+00
3.28313529e-01, 7.78488684e+00
3.16265345e-01, 7.82847977e+00
3.04217160e-01, 7.87207508e+00
2.92168975e-01, 7.91566801e+00
2.80120790e-01, 7.95926189e+00
2.68072605e-01, 8.00285530e+00
2.56024420e-01, 8.04644871e+00
2.43976235e-01, 8.08174992e+00
2.31928051e-01, 8.10992813e+00
2.19879866e-01, 8.13810635e+00
2.07831681e-01, 8.16628361e+00
1.95783496e-01, 8.19446087e+00
1.83735311e-01, 8.22264099e+00
1.71687126e-01, 8.24916458e+00
1.59638941e-01, 8.26788616e+00
1.47590756e-01, 8.28660679e+00
1.35542572e-01, 8.29984760e+00
1.23494379e-01, -5.56150675e-01
1.11446187e-01, -5.58596611e-01
9.93979946e-02, -5.61741471e-01
undef, undef
-5.72285056e-02, -5.34943223e-01
-6.92766979e-02, -5.36839724e-01
-8.13248903e-02, -5.29328287e-01
-9.33730826e-02, -5.17456353e-01
-1.05421275e-01, -3.67838359e+00
-1.17469467e-01, -3.68140459e+00
-1.29517660e-01, -3.68447065e+00
-1.41565859e-01, -3.68744469e+00
-1.53614044e-01, -3.69046474e+00
-1.65662229e-01, -3.69348526e+00
-1.77710414e-01, -3.69417071e+00
-1.89758599e-01, -3.69397116e+00
-2.01806784e-01, -3.69377065e+00
-2.13854969e-01, -3.69357109e+00
-2.25903153e-01, -3.69337130e+00
-2.37951338e-01, -3.69317150e+00
-2.49999523e-01, -3.69297171e+00
-2.62047708e-01, -3.69277167e+00
-2.74095893e-01, -3.69257188e+00
-2.86144078e-01, -3.69237137e+00
-2.98192263e-01, -3.69217157e+00
-3.10240448e-01, -3.69197130e+00
-3.22288632e-01, -3.69177198e+00
-3.34336817e-01, -3.69157195e+00
-3.46385002e-01, -3.69101048e+00
-3.58433187e-01, -3.68895864e+00
-3.70481372e-01, -3.68931651e+00
-3.82529557e-01, -6.27874434e-02
-3.94577742e-01, -6.54166713e-02
-4.06625926e-01, -6.86774254e-02
undef, undef
-5.51204145e-01, -9.96642262e-02
-5.63252330e-01, -9.32723135e-02
-5.75300515e-01, -9.94624123e-02
-5.87348700e-01, -9.03859213e-02
-5.99396884e-01, -7.99053833e-02
-6.11445069e-01, -1.78528643e+00
-6.23493254e-01, -1.83579934e+00
-6.35541439e-01, -1.88704956e+00
-6.47589624e-01, -1.93877888e+00
-6.59637809e-01, -1.99557471e+00
-6.71685994e-01, -2.05234194e+00
-6.83734179e-01, -2.10910892e+00
-6.95782363e-01, -2.16587591e+00
-7.07830548e-01, -2.22264338e+00
-7.19878733e-01, -2.27941036e+00
-7.31926918e-01, -2.33617759e+00
-7.43975103e-01, -2.40460682e+00
-7.56023288e-01, -2.48159528e+00
-7.68071473e-01, -2.55858421e+00
-7.80119658e-01, -2.63557291e+00
-7.92167842e-01, -2.72106433e+00
-8.04216027e-01, -2.81592751e+00
-8.16264212e-01, -2.91079092e+00
-8.28312397e-01, -3.00565362e+00
-8.40360582e-01, -3.10051632e+00
-8.52408767e-01, -3.20556045e+00
-8.64456952e-01, -3.31997633e+00
-8.76505136e-01, -3.43439221e+00
-8.88553321e-01, -3.49881411e+00
-9.00601506e-01, -3.54470348e+00
-9.12649691e-01, -3.62805128e+00
-9.24697876e-01, -3.71139836e+00
-9.36746061e-01, -3.79412436e+00
-9.48794246e-01, -3.87809420e+00
-9.60842431e-01, -3.96144247e+00
-9.72890615e-01, -4.04479027e+00
-9.84938800e-01, -4.13028955e+00
-9.96986985e-01, -4.21847868e+00
-1.00903523e+00, -4.30666780e+00
-1.02108347e+00, -4.39485741e+00
-1.03313172e+00, -4.48304749e+00
-1.04517996e+00, -4.55406094e+00
-1.05722821e+00, -4.57278919e+00
-1.06927645e+00, -4.59151793e+00
-1.08132470e+00, -4.61024523e+00
-1.09337294e+00, -4.62897396e+00
-1.10542119e+00, -4.65198040e+00
-1.11746943e+00, -4.67661285e+00
-1.12951767e+00, -4.70124578e+00
-1.14156592e+00, -4.72588015e+00
-1.15361416e+00, -4.75051308e+00
-1.16566241e+00, -4.77962255e+00
-1.17771065e+00, -4.81029224e+00
-1.18975890e+00, -4.84096289e+00
-1.20180714e+00, -4.87163448e+00
-1.21385539e+00, -4.90230513e+00
-1.22590363e+00, -4.89367962e+00
-1.23795187e+00, -4.87803173e+00
-1.25000012e+00, -4.86238289e+00
-1.26204836e+00, -4.84673595e+00
-1.27409661e+00, -4.83108807e+00
-1.28614485e+00, -4.81548643e+00
-1.29819310e+00, -4.79999828e+00
-1.31024134e+00, -4.78451109e+00
-1.32228959e+00, -4.76898766e+00
-1.33433783e+00, -4.75244427e+00
-1.34638608e+00, -4.73590088e+00
-1.35843432e+00, -4.71935511e+00
-1.37048256e+00, -4.70281219e+00
-1.38253081e+00, -4.68626833e+00
-1.39457905e+00, -4.66972446e+00
-1.40662730e+00, -4.63628292e+00
-1.41867554e+00, -4.59577942e+00
-1.43072379e+00, -4.55527639e+00
-1.44277203e+00, -4.51477289e+00
-1.45482028e+00, -4.47372055e+00
-1.46686852e+00, -4.41960955e+00
-1.47891676e+00, -4.36549711e+00
-1.49096501e+00, -4.31138468e+00
-1.50301325e+00, -4.25727272e+00
-1.51506150e+00, -4.20316076e+00
-1.52710974e+00, -4.14904881e+00
-1.53915799e+00, -4.09328794e+00
-1.55120623e+00, -4.03098297e+00
-1.56325448e+00, -3.95726347e+00
-1.57530272e+00, -3.88354397e+00
-1.58735096e+00, -3.80982399e+00
-1.59939921e+00, -3.73610353e+00
-1.61144745e+00, -3.66238451e+00
-1.62349570e+00, -3.58866405e+00
-1.63554394e+00, -3.50890970e+00
-1.64759219e+00, -3.42243385e+00
-1.65964043e+00, -3.33595848e+00
-1.67168868e+00, -3.24948263e+00
-1.68373692e+00, -3.16046667e+00
-1.69578516e+00, -3.06868029e+00
-1.70783341e+00, -2.97806120e+00
-1.71988165e+00, -2.89172149e+00
-1.73192990e+00, -2.80538154e+00
-1.74397814e+00, -2.71904230e+00
-1.75602639e+00, -2.62589312e+00
-1.76807463e+00, -2.52838278e+00
-1.78012288e+00, -2.43175316e+00
-1.79217112e+00, -2.33792782e+00
-1.80421937e+00, -2.24410248e+00
-1.81626761e+00, -2.15027618e+00
-1.82831585e+00, -2.05645084e+00
-1.84036410e+00, -1.96262503e+00
-1.85241234e+00, -1.86656022e+00
-1.86446059e+00, -1.76784635e+00
-1.87650883e+00, -1.66861320e+00
-1.88855708e+00, -1.56925106e+00
-1.90060532e+00, -1.46988916e+00
-1.91265357e+00, -1.37034762e+00
-1.92470181e+00, -1.27059293e+00
-1.93675005e+00, -1.17401874e+00
-1.94879830e+00, -1.07973874e+00
-1.96084654e+00, -9.85459328e-01
-1.97289479e+00, -8.91403675e-01
-1.98494303e+00, -7.95862913e-01
-1.99699128e+00, -6.99066818e-01
-2.00903940e+00, -6.02271616e-01
-2.02108765e+00, -5.05475521e-01
-2.03313589e+00, -4.08679575e-01
-2.04518414e+00, -3.21287334e-01
-2.05723238e+00, -2.55076319e-01
-2.06928062e+00, -1.93648815e-01
-2.08132887e+00, -1.40934005e-01
-2.09337711e+00, -8.57636705e-02
-2.10542536e+00, -2.19644196e-02
-2.11747360e+00, 4.18347791e-02
-2.12952185e+00, 6.84662163e-02
-2.14157009e+00, 7.97790065e-02
-2.15361834e+00, 9.10918191e-02
-2.16566658e+00, 1.02338284e-01
-2.17771482e+00, 1.08609527e-01
-2.18976307e+00, 1.15545541e-01
-2.20181131e+00, 1.25566140e-01
-2.21385956e+00, 1.21292710e-01
-2.22590780e+00, 8.27599838e-02
-2.23795605e+00, 4.23772708e-02
-2.25000429e+00, 0.00000000e+00


